Frequency(Hz)	Mag_Ydd(dB)	Mag_Ydq(dB)	Mag_Yqd(dB)	Mag_Yqq(dB)	Phase_Ydd(deg)	Phase_Ydq(deg)	Phase_Yqd(deg)	Phase_Yqq(deg)
1.000000000000000000e+00	-6.754105473112412028e+01	-4.771620844059651745e+01	-4.771620844062202593e+01	-6.754105473151570038e+01	1.107668505142269488e+01	1.797729503489310332e+02	-2.270496510319868766e-01	1.107668505196850184e+01
1.500000000000000000e+00	-6.733312278999660805e+01	-4.771199112906030848e+01	-4.771199112906734285e+01	-6.733312279033174264e+01	1.634963574570391387e+01	1.796592590065821753e+02	-3.407409931947699144e-01	1.634963574815371956e+01
2.000000000000000000e+00	-6.705717267755933619e+01	-4.770608359164616274e+01	-4.770608359166225654e+01	-6.705717267788847380e+01	2.133567191722937295e+01	1.795453674838227869e+02	-4.546325160715877778e-01	2.133567191851084033e+01
2.500000000000000000e+00	-6.672535672454947075e+01	-4.769848252003096434e+01	-4.769848252002955746e+01	-6.672535672474809587e+01	2.598338499012271541e+01	1.794312084524596287e+02	-5.687915476677147808e-01	2.598338498899573068e+01
3.000000000000000000e+00	-6.635008726274990920e+01	-4.768918365063530018e+01	-4.768918365062730658e+01	-6.635008726263700396e+01	3.026628045002359357e+01	1.793167140649656517e+02	-6.832859350671809384e-01	3.026628045025620040e+01
3.500000000000000000e+00	-6.594292744481694513e+01	-4.767818175688367432e+01	-4.767818175685677318e+01	-6.594292744518446625e+01	3.417873772679151045e+01	1.792018158212568153e+02	-7.981841784602821122e-01	3.417873772848604119e+01
4.000000000000000000e+00	-6.551394262268988200e+01	-4.766547063979154331e+01	-4.766547063979012222e+01	-6.551394262237919008e+01	3.773059076839162174e+01	1.790864444336675660e+02	-9.135555660955207991e-01	3.773059076738751116e+01
4.500000000000000000e+00	-6.507144970798644579e+01	-4.765104311715563767e+01	-4.765104311714359397e+01	-6.507144970771692272e+01	4.094179490788059894e+01	1.789705296856813561e+02	-1.029470313995402453e+00	4.094179490774328656e+01
5.000000000000000000e+00	-6.462204175975786313e+01	-4.763489101014273785e+01	-4.763489101015098015e+01	-6.462204175968709308e+01	4.383798419505617971e+01	1.788540002892368648e+02	-1.145999710669921345e+00	4.383798419392311985e+01
5.500000000000000000e+00	-6.417076701061469635e+01	-4.761700512875509617e+01	-4.761700512876853963e+01	-6.417076701057658283e+01	4.644717295826464465e+01	1.787367837376984312e+02	-1.263216262264904355e+00	4.644717295972866111e+01
6.000000000000000000e+00	-6.372137163640282154e+01	-4.759737525490380250e+01	-4.759737525490962184e+01	-6.372137163646466718e+01	4.879752685159001402e+01	1.786188061525571129e+02	-1.381193847589360146e+00	4.879752684976211441e+01
6.500000000000000000e+00	-6.327654955648866064e+01	-4.757599012382691228e+01	-4.757599012380364911e+01	-6.327654955648922908e+01	5.091598981894705389e+01	1.784999921248570161e+02	-1.500007875044877315e+00	5.091598981873875118e+01
7.000000000000000000e+00	-6.283816956288820421e+01	-4.755283740303792683e+01	-4.755283740304704310e+01	-6.283816956290186795e+01	5.282753180643099711e+01	1.783802645519968451e+02	-1.619735448170505965e+00	5.282753180766167134e+01
7.500000000000000000e+00	-6.240746786154707593e+01	-4.752790366980765668e+01	-4.752790366980739378e+01	-6.240746786136796231e+01	5.455481423322240175e+01	1.782595444622367324e+02	-1.740455538012654513e+00	5.455481423339053038e+01
8.000000000000000000e+00	-6.198520425612799301e+01	-4.750117438566946504e+01	-4.750117438565185068e+01	-6.198520425590420757e+01	5.611811883004821055e+01	1.781377508380691097e+02	-1.862249162022515003e+00	5.611811882988899214e+01
8.500000000000000000e+00	-6.157178518134270462e+01	-4.747263386920255357e+01	-4.747263386915971495e+01	-6.157178518154182001e+01	5.753543102913419460e+01	1.780148004247037932e+02	-1.985199575105662584e+00	5.753543103130421343e+01
9.000000000000000000e+00	-6.116735867335545862e+01	-4.744226526593627824e+01	-4.744226526595946325e+01	-6.116735867349724032e+01	5.882260557156806868e+01	1.778906075327107601e+02	-2.109392467184167508e+00	5.882260557118234345e+01
9.500000000000000000e+00	-6.077188662050960488e+01	-4.741005051649521818e+01	-4.741005051647172053e+01	-6.077188662055850443e+01	5.999356846677022048e+01	1.777650838270836005e+02	-2.234916172695293302e+00	5.999356846744630900e+01
1.000000000000000000e+01	-6.038519914184149684e+01	-4.737597032097374949e+01	-4.737597032096022787e+01	-6.038519914195114779e+01	6.106052772255850414e+01	1.776381381055497570e+02	-2.361861894684246455e+00	6.106052772337802992e+01
1.050000000000000000e+01	-6.000703515778540265e+01	-4.734000410154514071e+01	-4.734000410152781058e+01	-6.000703515763463258e+01	6.203417705966394635e+01	1.775096760632793291e+02	-2.490323936883128031e+00	6.203417705953313543e+01
1.100000000000000000e+01	-5.963707243797504987e+01	-4.730212996167410466e+01	-4.730212996167129091e+01	-5.963707243793483315e+01	6.292388451968123064e+01	1.773796000439080558e+02	-2.620399956287252863e+00	6.292388452055576664e+01
1.150000000000000000e+01	-5.927494969467013419e+01	-4.726232464223108565e+01	-4.726232464224619179e+01	-5.927494969468347108e+01	6.373786241241680983e+01	1.772478087731532526e+02	-2.752191226854427963e+00	6.373786241205995395e+01
1.200000000000000000e+01	-5.892028270222093056e+01	-4.722056347452437564e+01	-4.722056347451847103e+01	-5.892028270217652164e+01	6.448331780374304856e+01	1.771141970769403997e+02	-2.885802922980448049e+00	6.448331780340338071e+01
1.250000000000000000e+01	-5.857267594710141623e+01	-4.717682032952373561e+01	-4.717682032951810811e+01	-5.857267594704917713e+01	6.516658423509535680e+01	1.769786555776901480e+02	-3.021344422395507934e+00	6.516658423466216732e+01
1.300000000000000000e+01	-5.823173095040307601e+01	-4.713106756410103060e+01	-4.713106756405625219e+01	-5.823173095047771142e+01	6.579323613967308404e+01	1.768410703709704137e+02	-3.158929628948281998e+00	6.579323613838967333e+01
1.350000000000000000e+01	-5.789705211571398280e+01	-4.708327596246419233e+01	-4.708327596247869451e+01	-5.789705211566096921e+01	6.636818772812169698e+01	1.767013226809202706e+02	-3.298677319159335486e+00	6.636818772878791606e+01
1.400000000000000000e+01	-5.756825074304912704e+01	-4.703341467431452827e+01	-4.703341467433389056e+01	-5.756825074302163614e+01	6.689577820108706874e+01	1.765592884851708675e+02	-3.440711515040104640e+00	6.689577820095900051e+01
1.450000000000000000e+01	-5.724494769056104104e+01	-4.698145114810859724e+01	-4.698145114809878464e+01	-5.724494769061038113e+01	6.737984502251117647e+01	1.764148381173068287e+02	-3.585161882689916979e+00	6.737984502175244472e+01
1.500000000000000000e+01	-5.692677503934213945e+01	-4.692735105964955267e+01	-4.692735105968665721e+01	-5.692677503929543548e+01	6.782378690613610672e+01	1.762678358361139885e+02	-3.732164163715370186e+00	6.782378690553386491e+01
1.550000000000000000e+01	-5.661337702814853401e+01	-4.687107823612577562e+01	-4.687107823610478619e+01	-5.661337702819054130e+01	6.823061792470552689e+01	1.761181393606428003e+02	-3.881860639437642924e+00	6.823061792457235697e+01
1.600000000000000000e+01	-5.630441045905171649e+01	-4.681259457400922486e+01	-4.681259457402770607e+01	-5.630441045913167386e+01	6.860301402347093358e+01	1.759655993683620352e+02	-4.034400631843716667e+00	6.860301402334877707e+01
1.650000000000000000e+01	-5.599954471847480875e+01	-4.675185995232929059e+01	-4.675185995232556024e+01	-5.599954471839897252e+01	6.894335301905550750e+01	1.758100589540259193e+02	-4.189941046032920724e+00	6.894335301845997321e+01
1.700000000000000000e+01	-5.569846152648334225e+01	-4.668883213885298744e+01	-4.668883213888398132e+01	-5.569846152648872817e+01	6.925374902490209195e+01	1.756513530422988651e+02	-4.348646957914223954e+00	6.925374902555013534e+01
1.750000000000000000e+01	-5.540085449473576062e+01	-4.662346669045309255e+01	-4.662346669044984537e+01	-5.540085449478687707e+01	6.953608211424331387e+01	1.754893077498805383e+02	-4.510692249929725506e+00	6.953608211370945469e+01
1.800000000000000000e+01	-5.510642855262393169e+01	-4.655571684602314519e+01	-4.655571684601323312e+01	-5.510642855256343609e+01	6.979202387494385107e+01	1.753237396953255995e+02	-4.676260304785452959e+00	6.979202387498806104e+01
1.850000000000000000e+01	-5.481489928545137502e+01	-4.648553341236336678e+01	-4.648553341239263403e+01	-5.481489928546639590e+01	7.002305946544331050e+01	1.751544552440546454e+02	-4.845544756043617340e+00	7.002305946601744324e+01
1.900000000000000000e+01	-5.452599221993268941e+01	-4.641286464171010806e+01	-4.641286464170356396e+01	-5.452599222003168222e+01	7.023050663668993820e+01	1.749812496912438746e+02	-5.018750308702895957e+00	7.023050663717471309e+01
1.950000000000000000e+01	-5.423944207629840264e+01	-4.633765610081346153e+01	-4.633765610080252628e+01	-5.423944207630682257e+01	7.041553214101753611e+01	1.748039063670493647e+02	-5.196093632904116966e+00	7.041553214124513715e+01
2.000000000000000000e+01	-5.395499200558145247e+01	-4.625985053078217391e+01	-4.625985053079197939e+01	-5.395499200561716435e+01	7.057916588022028748e+01	1.746221956592875983e+02	-5.377804340580976117e+00	7.057916587947381970e+01
2.050000000000000000e+01	-5.367239282459227212e+01	-4.617938769713725833e+01	-4.617938769716461422e+01	-5.367239282452840143e+01	7.072231308007633288e+01	1.744358739463817756e+02	-5.564126053705070518e+00	7.072231308075811285e+01
2.100000000000000000e+01	-5.339140225341468238e+01	-4.609620422899172354e+01	-4.609620422898846925e+01	-5.339140225343654578e+01	7.084576475182569766e+01	1.742446824262881080e+02	-5.755317573575440271e+00	7.084576475215864377e+01
2.150000000000000000e+01	-5.311178416458399454e+01	-4.601023344705404128e+01	-4.601023344702586826e+01	-5.311178416461522289e+01	7.095020662528931155e+01	1.740483458344798180e+02	-5.951654165553520670e+00	7.095020662526742683e+01
2.200000000000000000e+01	-5.283330784172530059e+01	-4.592140517914618414e+01	-4.592140517916023157e+01	-5.283330784189282525e+01	7.103622675432045241e+01	1.738465710313974739e+02	-6.153428968633559037e+00	7.103622675414284515e+01
2.250000000000000000e+01	-5.255574725426463090e+01	-4.582964556307598514e+01	-4.582964556309122628e+01	-5.255574725423490179e+01	7.110432192590039335e+01	1.736390454526197118e+02	-6.360954547558230310e+00	7.110432192579261823e+01
2.300000000000000000e+01	-5.227888034266822359e+01	-4.573487683460345465e+01	-4.573487683462438724e+01	-5.227888034267482453e+01	7.115490299229801963e+01	1.734254353969800775e+02	-6.574564602889650722e+00	7.115490299247781536e+01
2.350000000000000000e+01	-5.200248831977105368e+01	-4.563701710100498588e+01	-4.563701710100664855e+01	-5.200248831974710839e+01	7.118829923390971715e+01	1.732053841415075794e+02	-6.794615858568467281e+00	7.118829923392955550e+01
2.400000000000000000e+01	-5.172635498067759841e+01	-4.553598009773296695e+01	-4.553598009776422373e+01	-5.172635498067815263e+01	7.120476182081952743e+01	1.729785098518520101e+02	-7.021490147915007363e+00	7.120476182096412288e+01
2.450000000000000000e+01	-5.145026602431678953e+01	-4.543167492858394496e+01	-4.543167492855292267e+01	-5.145026602424417206e+01	7.120446644719143592e+01	1.727444032744734841e+02	-7.255596725600063301e+00	7.120446644746421327e+01
2.500000000000000000e+01	-5.117400838019995746e+01	-4.532400578610028674e+01	-4.532400578610705821e+01	-5.117400838020490994e+01	7.118751517688501451e+01	1.725026251721627943e+02	-7.497374827763731986e+00	7.118751517743793045e+01
2.550000000000000000e+01	-5.089736954274543024e+01	-4.521287165335245106e+01	-4.521287165337721348e+01	-5.089736954273490710e+01	7.115393753399655452e+01	1.722527034790668097e+02	-7.747296520745915238e+00	7.115393753409087196e+01
2.600000000000000000e+01	-5.062013690578784519e+01	-4.509816598373176078e+01	-4.509816598373802066e+01	-5.062013690579832570e+01	7.110369086346911160e+01	1.719941301319532272e+02	-8.005869868038498538e+00	7.110369086374063841e+01
2.650000000000000000e+01	-5.034209709825802292e+01	-4.497977635864705803e+01	-4.497977635864457824e+01	-5.034209709830975044e+01	7.103665996181807429e+01	1.717263575380676741e+02	-8.273642462019903832e+00	7.103665996195206844e+01
2.700000000000000000e+01	-5.006303531698068809e+01	-4.485758412156687314e+01	-4.485758412155079355e+01	-5.006303531704620013e+01	7.095265597244561206e+01	1.714487946314414728e+02	-8.551205368393555162e+00	7.095265597249142786e+01
2.750000000000000000e+01	-4.978273465383296070e+01	-4.473146398702643012e+01	-4.473146398701904047e+01	-4.978273465385322538e+01	7.085141453000420597e+01	1.711608024602914213e+02	-8.839197539387111391e+00	7.085141453025265434e+01
2.800000000000000000e+01	-4.950097541578281835e+01	-4.460128362361167831e+01	-4.460128362358477716e+01	-4.950097541580541360e+01	7.073259311861032472e+01	1.708616892395766342e+02	-9.138310760458786319e+00	7.073259311846746300e+01
2.850000000000000000e+01	-4.921753443477480516e+01	-4.446690320980326305e+01	-4.446690320980653155e+01	-4.921753443476085010e+01	7.059576759362661846e+01	1.705507047952089579e+02	-9.449295204784174729e+00	7.059576759370902721e+01
2.900000000000000000e+01	-4.893218436639975977e+01	-4.432817496225142406e+01	-4.432817496226547860e+01	-4.893218436638643709e+01	7.044042781439353007e+01	1.702270343136601127e+02	-9.772965686453957801e+00	7.044042781391581798e+01
2.950000000000000000e+01	-4.864469297511887902e+01	-4.418494263590471860e+01	-4.418494263586956805e+01	-4.864469297509769774e+01	7.026597229363913755e+01	1.698897912918206430e+02	-1.011020870837315044e+01	7.026597229362117503e+01
3.000000000000000000e+01	-4.835482240603198534e+01	-4.403704099604478728e+01	-4.403704099607121236e+01	-4.835482240609158566e+01	7.007170178288687623e+01	1.695380095741543869e+02	-1.046199042572775362e+01	7.007170178291089258e+01
3.050000000000000000e+01	-4.806232844310144259e+01	-4.388429526460229368e+01	-4.388429526461156627e+01	-4.806232844310898145e+01	6.985681165611501342e+01	1.691706343379085240e+02	-1.082936566214623930e+01	6.985681165625970834e+01
3.100000000000000000e+01	-4.776695975397849736e+01	-4.372652054054164950e+01	-4.372652054053869364e+01	-4.776695975400688354e+01	6.962038295677805877e+01	1.687865118620405838e+02	-1.121348813787779974e+01	6.962038295683606748e+01
3.150000000000000000e+01	-4.746845712685464491e+01	-4.356352120062761912e+01	-4.356352120060818578e+01	-4.746845712689628272e+01	6.936137193209302154e+01	1.683843779020192528e+02	-1.161562209786382383e+01	6.936137193244579180e+01
3.200000000000000000e+01	-4.716655270123196431e+01	-4.339509028425020176e+01	-4.339509028424395609e+01	-4.716655270128327260e+01	6.907859784308760709e+01	1.679628444390403956e+02	-1.203715556084617688e+01	6.907859784316188723e+01
3.250000000000000000e+01	-4.686096920255945264e+01	-4.322100887196783958e+01	-4.322100887197259311e+01	-4.686096920253730502e+01	6.877072880393058085e+01	1.675203845545121908e+02	-1.247961544544156176e+01	6.877072880372313080e+01
3.300000000000000000e+01	-4.655141919106876003e+01	-4.304104546951650434e+01	-4.304104546951305110e+01	-4.655141919111677851e+01	6.843626535788249043e+01	1.670553151208058864e+02	-1.294468487921002442e+01	6.843626535795425525e+01
3.350000000000000000e+01	-4.623760434244137230e+01	-4.285495541441147083e+01	-4.285495541442405454e+01	-4.623760434242731776e+01	6.807352144012342876e+01	1.665657769549222280e+02	-1.343422304509727994e+01	6.807352144012716622e+01
3.400000000000000000e+01	-4.591921478180296390e+01	-4.266248032933987844e+01	-4.266248032933614809e+01	-4.591921478179774851e+01	6.768060231109369340e+01	1.660497120106607554e+02	-1.395028798911030066e+01	6.768060231087511625e+01
3.450000000000000000e+01	-4.559592850545450204e+01	-4.246334765467857153e+01	-4.246334765467030081e+01	-4.559592850545779186e+01	6.725537897612420579e+01	1.655048371192906700e+02	-1.449516288077711579e+01	6.725537897629402551e+01
3.500000000000000000e+01	-4.526741093268097416e+01	-4.225727030512193494e+01	-4.225727030512957327e+01	-4.526741093272916316e+01	6.679545851210610863e+01	1.649286136878086495e+02	-1.507138631205198820e+01	6.679545851214939489e+01
3.550000000000000000e+01	-4.493331464888662197e+01	-4.204394651076849954e+01	-4.204394651076793110e+01	-4.493331464889198656e+01	6.629814961711630872e+01	1.643182126785636683e+02	-1.568178732140483689e+01	6.629814961710259524e+01
3.600000000000000000e+01	-4.459327942015727331e+01	-4.182305992444472764e+01	-4.182305992445456155e+01	-4.459327942016909674e+01	6.576042258781257033e+01	1.636704740533330664e+02	-1.632952594658973666e+01	6.576042258771630600e+01
3.650000000000000000e+01	-4.424693259088791564e+01	-4.159428010571269851e+01	-4.159428010573101631e+01	-4.424693259090783926e+01	6.517886278034349345e+01	1.629818597500383532e+02	-1.701814025001282360e+01	6.517886278050301030e+01
3.700000000000000000e+01	-4.389389001036590798e+01	-4.135726352927402871e+01	-4.135726352925628646e+01	-4.389389001035843307e+01	6.454961646625606875e+01	1.622483990865505064e+02	-1.775160091348353220e+01	6.454961646617680060e+01
3.750000000000000000e+01	-4.353375768799081413e+01	-4.111165531725353617e+01	-4.111165531724584099e+01	-4.353375768801179646e+01	6.386832781540452686e+01	1.614656253297006288e+02	-1.853437467023614360e+01	6.386832781547500559e+01
3.800000000000000000e+01	-4.316613444392953625e+01	-4.085709196192679826e+01	-4.085709196193258208e+01	-4.316613444392298504e+01	6.313006556754598364e+01	1.606285019827954841e+02	-1.937149801723825959e+01	6.313006556759169285e+01
3.850000000000000000e+01	-4.279061591166254175e+01	-4.059320539709965914e+01	-4.059320539709879938e+01	-4.279061591166860978e+01	6.232923777073862937e+01	1.597313371679477143e+02	-2.026866283205234609e+01	6.232923777082198313e+01
3.900000000000000000e+01	-4.240680037316644757e+01	-4.031962889706704090e+01	-4.031962889706760933e+01	-4.240680037316223405e+01	6.145949282232267308e+01	1.587676843391087687e+02	-2.123231566088823286e+01	6.145949282232849953e+01
4.000000000000000000e+01	-4.161273781895538093e+01	-3.974199942508248995e+01	-3.974199942508555949e+01	-4.161273781896472457e+01	5.948334245542180554e+01	1.566106489535029027e+02	-2.338935104651001495e+01	5.948334245526152841e+01
4.050000000000000000e+01	-4.120179315458695868e+01	-3.943731278063513912e+01	-3.943731278062679735e+01	-4.120179315458271674e+01	5.835931693107621498e+01	1.553994786782648987e+02	-2.460052132172118533e+01	5.835931693113882091e+01
4.100000000000000000e+01	-4.078119436549920351e+01	-3.912170714020456330e+01	-3.912170714020350459e+01	-4.078119436551152432e+01	5.713081327770528617e+01	1.540859236787819384e+02	-2.591407632131667071e+01	5.713081327767210382e+01
4.200000000000000000e+01	-3.991045415030237820e+01	-3.845727481909601408e+01	-3.845727481910390821e+01	-3.991045415030973942e+01	5.430972910362689987e+01	1.511007237021204332e+02	-2.889927629786949481e+01	5.430972910365036199e+01
4.250000000000000000e+01	-3.946040536131947363e+01	-3.810859644893574227e+01	-3.810859644895588616e+01	-3.946040536132029075e+01	5.268731714715902825e+01	1.493991090503808721e+02	-3.060089094957008271e+01	5.268731714710980896e+01
4.300000000000000000e+01	-3.900101434613616647e+01	-3.774942241249257080e+01	-3.774942241248831465e+01	-3.900101434614698803e+01	5.090035059819975771e+01	1.475347563529417982e+02	-3.246524364703341092e+01	5.090035059823363639e+01
4.400000000000000000e+01	-3.805768227522653291e+01	-3.700316551148584665e+01	-3.700316551147700039e+01	-3.805768227523719816e+01	4.674911503260430834e+01	1.432339547456294042e+02	-3.676604525435223536e+01	4.674911503264106472e+01
4.450000000000000000e+01	-3.757682597943347957e+01	-3.661921613323813318e+01	-3.661921613323450941e+01	-3.757682597942584124e+01	4.433713795729044449e+01	1.407496827745449082e+02	-3.925031722549714885e+01	4.433713795729251217e+01
4.500000000000000000e+01	-3.709314597529200341e+01	-3.623138712739138612e+01	-3.623138712738837341e+01	-3.709314597528950941e+01	4.166559407336457355e+01	1.380074302467085090e+02	-4.199256975328825092e+01	4.166559407331942566e+01
